Distance T,Temperature (Celsius),Distance CH4,CH4,Distance O2,O2,Distance H2,H2,Distance CO,CO,Distance H2O,H2O,Distance CO2,CO2
-4.891,107.784,-4.921,0.062,-4.891,0.03,-3.824,0,-3.851,0,-4.861,0,-4.831,0
-4.725,113.772,-4.664,0.062,-4.695,0.03,-3.566,0,-3.62,0,-4.664,0,-4.544,0
-4.544,116.766,-4.453,0.062,-4.513,0.03,-3.348,0,-3.403,0,-4.453,0.001,-4.332,0
-4.302,122.754,-4.211,0.062,-4.332,0.03,-3.131,0,-3.186,0,-4.211,0.001,-4.03,0
-4.151,125.749,-3.97,0.062,-4.151,0.03,-2.914,0,-2.941,0,-4.03,0,-3.668,0
-3.97,128.743,-3.758,0.062,-3.97,0.031,-2.67,0,-2.778,0,-3.819,0,-3.366,0
-3.819,134.731,-3.577,0.062,-3.789,0.03,-2.48,0,-2.561,0,-3.668,0.001,-3.064,0
-3.638,140.719,-3.366,0.062,-3.607,0.03,-2.235,0,-2.398,0,-3.456,0,-2.701,0
-3.456,146.707,-3.185,0.062,-3.456,0.031,-2.018,0,-2.154,0,-3.245,0,-2.399,0
-3.275,152.695,-3.034,0.061,-3.275,0.031,-1.774,0,-1.964,0,-3.064,0.001,-2.158,0.001
-3.124,164.671,-2.852,0.061,-3.094,0.031,-1.557,0,-1.774,0,-2.852,0.001,-1.856,0.001
-2.943,170.659,-2.641,0.062,-2.913,0.031,-1.367,0,-1.584,0,-2.671,0.001,-1.644,0.001
-2.762,179.641,-2.49,0.062,-2.732,0.031,-1.149,0,-1.394,0,-2.49,0,-1.342,0.001
-2.55,188.623,-2.339,0.062,-2.581,0.031,-0.986,0,-1.204,0,-2.279,0,-1.07,0
-2.339,200.599,-2.158,0.062,-2.369,0.031,-0.796,0,-1.014,0,-2.097,0.001,-0.708,0
-2.158,212.575,-1.977,0.062,-2.188,0.03,-0.633,0,-0.824,0,-1.886,0,-0.406,0
-1.946,221.557,-1.735,0.061,-1.977,0.031,-0.471,0,-0.661,0,-1.674,0.001,-0.104,-0.001
-1.765,233.533,-1.554,0.061,-1.765,0.031,-0.308,0,-0.498,0,-1.463,0.001,0.198,0
-1.554,245.509,-1.312,0.062,-1.554,0.031,-0.118,0,-0.335,0,-1.221,0.001,0.56,0
-1.372,260.479,-1.07,0.061,-1.372,0.031,0.045,0,-0.145,0,-1.07,0.002,0.862,0.001
-1.191,272.455,-0.859,0.061,-1.161,0.031,0.208,0,0.018,0,-0.829,0.002,1.134,0.002
-1.01,290.419,-0.678,0.062,-1.04,0.03,0.371,0,0.181,0,-0.678,0.001,1.376,0.002
-0.829,302.395,-0.466,0.062,-0.799,0.031,0.561,0,0.398,0,-0.497,0,1.648,0.002
-0.678,320.359,-0.225,0.063,-0.617,0.031,0.724,0.001,0.588,0,-0.285,0,1.859,0.002
-0.527,338.323,-0.013,0.063,-0.436,0.031,0.887,0.002,0.751,0,-0.104,0,2.101,0.002
-0.406,356.287,0.138,0.061,-0.225,0.031,1.077,0.003,0.914,0.001,0.077,0,2.342,0.002
-0.285,371.257,0.319,0.06,-0.044,0.031,1.24,0.004,1.05,0.001,0.258,0.002,2.523,0.002
-0.164,392.216,0.44,0.059,0.138,0.03,1.376,0.006,1.186,0.003,0.379,0.004,2.735,0.002
-0.044,416.168,0.591,0.058,0.289,0.029,1.538,0.008,1.376,0.004,0.53,0.006,2.916,0.002
0.047,437.126,0.711,0.057,0.44,0.028,1.674,0.01,1.538,0.006,0.681,0.009,3.097,0.002
0.138,458.084,0.862,0.055,0.56,0.026,1.783,0.011,1.674,0.007,0.832,0.011,3.339,0.002
0.198,482.036,1.013,0.054,0.681,0.024,1.919,0.013,1.81,0.009,0.983,0.013,3.55,0.002
0.289,505.988,1.104,0.053,0.772,0.022,2.054,0.015,1.946,0.01,1.074,0.015,3.762,0.002
0.349,529.94,1.195,0.051,0.862,0.021,2.136,0.017,2.081,0.012,1.195,0.018,3.973,0.002
0.44,550.898,1.315,0.049,0.923,0.019,2.244,0.019,2.163,0.014,1.346,0.02,4.185,0.002
0.5,574.85,1.466,0.048,1.044,0.017,2.299,0.02,2.244,0.016,1.466,0.022,4.426,0.002
0.56,595.808,1.587,0.046,1.104,0.014,2.434,0.023,2.299,0.018,1.648,0.024,4.638,0.002
0.651,616.766,1.738,0.045,1.225,0.013,2.516,0.025,2.38,0.021,1.859,0.025,4.849,0.002
0.711,637.725,1.859,0.043,1.346,0.011,2.624,0.027,2.489,0.023,2.04,0.026,5.091,0.002
0.772,658.683,1.95,0.042,1.497,0.009,2.76,0.028,2.597,0.025,2.161,0.028,5.302,0.002
0.862,682.635,2.01,0.04,1.648,0.008,2.95,0.03,2.76,0.027,2.342,0.03,5.513,0.002
0.923,706.587,2.131,0.038,1.799,0.006,3.113,0.031,2.923,0.027,2.523,0.029,5.785,0.002
0.983,727.545,2.191,0.036,1.98,0.005,3.276,0.033,3.113,0.027,2.674,0.028,6.057,0.002
1.104,745.509,2.312,0.034,2.131,0.003,3.439,0.034,3.249,0.026,2.795,0.027,6.268,0.002
1.164,763.473,2.433,0.033,2.312,0.002,3.575,0.036,3.385,0.026,2.977,0.026,6.48,0.002
1.255,784.431,2.614,0.033,2.523,0.002,3.738,0.037,3.575,0.026,3.158,0.025,6.721,0.002
1.346,808.383,2.795,0.033,2.705,0.002,3.873,0.039,3.71,0.027,3.279,0.023,6.963,0.002
1.497,829.341,3.037,0.034,2.886,0.002,4.009,0.041,3.9,0.028,3.49,0.023,7.174,0.002
1.587,850.299,3.248,0.034,3.128,0.002,4.145,0.043,4.063,0.029,3.671,0.023,7.416,0.002
1.738,871.257,3.43,0.033,3.369,0.002,4.281,0.045,4.253,0.03,3.883,0.022,7.597,0.002
1.919,892.216,3.581,0.032,3.55,0.001,4.443,0.046,4.416,0.031,4.094,0.022,7.809,0.002
2.07,910.18,3.762,0.032,3.732,0.001,4.579,0.048,4.606,0.031,4.275,0.022,7.99,0.002
2.282,925.15,3.913,0.031,3.913,0.001,4.742,0.05,4.796,0.032,4.487,0.022,8.171,0.002
2.493,940.12,4.124,0.03,4.124,0,4.878,0.051,5.014,0.033,4.698,0.021,8.383,0.002
2.674,952.096,4.305,0.029,4.305,0,5.068,0.052,5.204,0.034,4.909,0.02,8.624,0.002
2.856,961.078,4.487,0.028,4.456,0.001,5.258,0.054,5.394,0.034,5.121,0.02,8.836,0.003
3.067,970.06,4.668,0.028,4.638,0.001,5.448,0.055,5.584,0.034,5.362,0.019,9.077,0.003
3.248,973.054,4.849,0.027,4.819,0,5.665,0.056,5.719,0.034,5.574,0.019,9.379,0.002
3.46,976.048,5.03,0.027,5.03,0,5.855,0.057,5.882,0.034,5.785,0.019,9.651,0.002
3.641,982.036,5.211,0.026,5.181,0,6.045,0.058,6.045,0.035,6.027,0.019,9.862,0.002
3.883,982.036,5.393,0.026,5.393,0,6.235,0.059,6.235,0.035,6.268,0.018,10.164,0.002
4.124,982.036,5.604,0.025,5.604,0,6.425,0.06,6.398,0.035,6.48,0.018,10.436,0.002
4.305,982.036,5.785,0.025,5.785,0,6.615,0.06,6.561,0.035,6.691,0.018,10.648,0.003
4.517,982.036,5.966,0.025,5.966,0,6.805,0.061,6.778,0.036,6.933,0.018,10.829,0.003
4.728,979.042,6.148,0.024,6.148,0,6.995,0.062,6.968,0.036,7.144,0.018,11.04,0.003
4.94,976.048,6.359,0.024,6.329,0,7.186,0.063,7.158,0.037,7.356,0.018,11.252,0.002
5.151,976.048,6.54,0.024,6.51,0,7.403,0.063,7.376,0.037,7.567,0.018,11.463,0.002
5.362,973.054,6.721,0.024,6.721,0,7.593,0.062,7.566,0.037,7.809,0.018,11.705,0.002
5.574,973.054,6.903,0.023,6.903,0,7.81,0.062,7.701,0.036,7.99,0.018,11.946,0.002
5.755,970.06,7.084,0.023,7.144,0,8.054,0.062,7.891,0.035,8.201,0.017,12.188,0.002
5.966,967.066,7.235,0.023,7.326,-0.001,8.271,0.062,8.081,0.036,8.383,0.016,12.46,0.002
6.148,964.072,7.416,0.022,7.537,-0.001,8.462,0.062,8.299,0.036,8.594,0.017,12.701,0.002
6.359,961.078,7.567,0.022,7.748,-0.001,8.679,0.061,8.516,0.036,8.805,0.017,12.943,0.002
6.54,958.084,7.779,0.022,7.96,0,8.869,0.061,8.706,0.036,8.987,0.017,13.185,0.002
6.721,952.096,7.99,0.023,8.171,0,9.059,0.062,8.923,0.035,9.138,0.016,13.396,0.002
6.903,949.102,8.171,0.023,8.443,0,9.249,0.062,9.086,0.035,9.349,0.016,13.638,0.002
7.084,949.102,8.413,0.024,8.685,0,9.466,0.063,9.249,0.034,9.56,0.016,13.849,0.002
7.295,946.108,8.594,0.024,8.896,0,9.683,0.065,9.412,0.034,9.772,0.015,14.151,0.003
7.477,940.12,8.745,0.023,9.107,0,9.9,0.065,9.602,0.035,9.983,0.015,14.393,0.002
7.658,934.132,8.956,0.024,9.319,0,10.063,0.067,9.792,0.035,10.195,0.014,14.574,0.002
7.839,934.132,9.168,0.024,9.53,0,10.253,0.067,9.982,0.035,10.436,0.014,14.831,0.002
8.02,931.138,9.349,0.024,9.742,0,10.416,0.068,10.118,0.036,10.648,0.013,,
8.232,928.144,9.53,0.024,9.923,0,10.579,0.068,10.308,0.036,10.859,0.014,,
8.413,925.15,9.681,0.024,10.164,0,10.742,0.069,10.498,0.037,11.04,0.014,,
8.594,922.156,9.893,0.024,10.346,0,10.905,0.069,10.661,0.037,11.221,0.014,,
8.805,919.162,10.074,0.024,10.557,0,11.068,0.069,10.824,0.037,11.433,0.014,,
8.987,916.168,10.285,0.024,10.738,0,11.231,0.069,11.014,0.038,11.584,0.014,,
9.228,916.168,10.497,0.024,10.95,0,11.421,0.069,11.231,0.038,11.765,0.014,,
9.379,916.168,10.678,0.023,11.131,0,11.611,0.069,11.421,0.038,11.946,0.014,,
9.56,913.174,10.889,0.023,11.372,0,11.774,0.07,11.584,0.037,12.158,0.014,,
9.772,913.174,11.04,0.022,11.554,0,11.91,0.07,11.747,0.037,12.369,0.014,,
9.983,910.18,11.252,0.022,11.674,-0.001,12.1,0.071,11.964,0.038,12.581,0.014,,
10.225,907.186,11.403,0.022,11.856,0,12.262,0.071,12.127,0.038,12.732,0.014,,
10.436,904.192,11.584,0.021,12.037,0,12.398,0.071,12.344,0.038,12.913,0.014,,
10.648,904.192,11.765,0.021,12.248,0,12.588,0.071,12.561,0.038,13.124,0.014,,
10.889,904.192,11.946,0.021,12.46,0,12.751,0.071,12.751,0.038,13.336,0.014,,
11.131,901.198,12.128,0.021,12.671,0,12.941,0.071,12.941,0.039,13.517,0.014,,
11.342,898.204,12.309,0.021,12.883,0,13.104,0.071,13.131,0.039,13.728,0.014,,
11.523,898.204,12.46,0.021,13.124,0,13.294,0.071,13.321,0.039,13.909,0.014,,
11.765,895.21,12.671,0.021,13.305,0,13.484,0.071,13.538,0.039,14.151,0.014,,
11.946,892.216,12.883,0.021,13.456,0,13.647,0.071,13.701,0.039,14.362,0.015,,
12.158,892.216,13.094,0.021,13.668,0,13.851,0.071,13.878,0.039,14.604,0.015,,
12.339,892.216,13.275,0.02,13.849,0,,,,,14.831,0.015,,
12.55,892.216,13.517,0.02,14.03,0,,,,,,,,
12.762,892.216,13.728,0.02,14.211,0,,,,,,,,
12.943,889.222,13.94,0.02,14.423,0,,,,,,,,
13.154,889.222,14.121,0.02,14.634,0,,,,,,,,
13.396,889.222,14.332,0.019,14.861,0,,,,,,,,
13.607,889.222,14.513,0.019,,,,,,,,,,
13.789,889.222,14.77,0.019,,,,,,,,,,
14.03,889.222,,,,,,,,,,,,
14.272,889.222,,,,,,,,,,,,
14.513,889.222,,,,,,,,,,,,
14.8,889.222,,,,,,,,,,,,
